# dimensionless total lensed [l(l+1)/2pi] C_l's
# for l=2 to 2500, i.e. number of multipoles equal to 2499
#
# -> if you prefer output in CAMB/HealPix/LensPix units/order, set 'format' to 'camb' in input file
# -> if you don't want to see such a header, set 'headers' to 'no' in input file
# -> for CMB lensing (phi), these are C_l^phi-phi for the lensing potential.
#    Remember the conversion factors:
#    C_l^dd (deflection) = l(l+1) C_l^phi-phi
#    C_l^gg (shear/convergence) = 1/4 (l(l+1))^2 C_l^phi-phi
#
# 1:l     2:TT                     3:EE                     4:TE                     5:BB                     6:phiphi                 7:TPhi                   8:Ephi               
    2       9.696165984156e-10       3.822564722271e-15       2.208345672617e-13       2.726263283033e-19       2.320527057345e-08       3.821363214697e-09      -1.123200175834e-12 
    3       7.246948668223e-10       5.241978206523e-15       3.390738764836e-13       5.454152274014e-19       1.354261583338e-08       2.475782235924e-09      -9.230045916554e-13 
    4       5.729761742485e-10       4.718659439039e-15       3.865477603887e-13       9.093826228933e-19       8.988070185385e-09       1.770959479182e-09      -5.670709165761e-13 
    5       4.721423834239e-10       3.254296063580e-15       3.763029713394e-13       1.364734211125e-18       6.446362965927e-09       1.344565471190e-09      -2.379233816074e-13 
    6       4.015928489814e-10       1.900152433009e-15       3.349036556196e-13       1.911717910094e-18       4.867403952112e-09       1.061763608344e-09       8.609419617772e-15 
    7       3.503340308038e-10       1.089042686688e-15       2.833430888359e-13       2.550618202823e-18       3.817018162932e-09       8.627539870790e-10       1.622722310081e-13 
    8       3.118727735906e-10       7.413270880947e-16       2.340333101717e-13       3.281749803314e-18       3.078338026358e-09       7.163629403032e-10       2.322861890246e-13 
    9       2.823137297981e-10       6.071526751597e-16       1.933421824193e-13       4.105450862749e-18       2.535933352016e-09       6.049092987178e-10       2.379157859227e-13 
   10       2.591797422543e-10       5.136217914282e-16       1.637282186595e-13       5.022075946692e-18       2.125145036784e-09       5.178649880196e-10       2.023979952423e-13 
   11       2.408298197536e-10       4.179223049488e-16       1.451693404509e-13       6.031989018210e-18       1.709358009554e-09       4.423559877972e-10       1.474071063081e-13 
   12       2.261560636076e-10       3.433793541454e-16       1.360636116480e-13       7.135556656906e-18       1.466018432164e-09       3.865441857598e-10       9.274226454340e-14 
   13       2.142097547473e-10       3.101163061161e-16       1.340853512762e-13       8.333141730150e-18       1.269959806244e-09       3.404672877531e-10       4.863576591389e-14 
   14       2.043703404664e-10       3.135198717506e-16       1.369905446597e-13       9.625097710826e-18       1.109681513676e-09       3.018313523258e-10       2.014559303897e-14 
   15       1.963135387055e-10       3.386890848262e-16       1.428665012045e-13       1.101176380664e-17       9.770024109490e-10       2.693057499759e-10       7.286957463786e-15 
   16       1.897604722791e-10       3.775600703148e-16       1.501491138354e-13       1.249346103069e-17       8.659589711726e-10       2.416885042594e-10       6.244881032807e-15 
   17       1.843394302771e-10       4.316517600747e-16       1.578460812552e-13       1.407048930285e-17       7.721169170547e-10       2.179799191314e-10       1.167611996822e-14 
   18       1.798608082682e-10       5.052677546495e-16       1.655903691996e-13       1.574312514775e-17       6.917845900265e-10       1.973145702143e-10       1.826211220146e-14 
   19       1.762636659437e-10       5.984336738106e-16       1.734400694423e-13       1.751162335815e-17       6.234014154060e-10       1.794030048039e-10       2.299367055450e-14 
   20       1.733195632108e-10       7.090226232660e-16       1.815255243304e-13       1.937621200682e-17       5.639241645987e-10       1.636533592700e-10       2.357600721693e-14 
   21       1.709802018922e-10       8.367261400559e-16       1.899205723692e-13       2.133710088318e-17       5.122028653685e-10       1.498316372822e-10       2.017080540273e-14 
   22       1.691557762887e-10       9.818030618716e-16       1.986348988969e-13       2.339447583586e-17       4.668197485498e-10       1.375890219704e-10       1.413705580390e-14 
   23       1.677869739251e-10       1.145768999742e-15       2.075532298636e-13       2.554850971039e-17       4.270106481238e-10       1.267320281230e-10       7.125313423247e-15 
   24       1.667669233812e-10       1.330235830247e-15       2.164597498095e-13       2.779935661958e-17       3.917080911128e-10       1.169844051874e-10       1.009070293973e-15 
   25       1.660785317695e-10       1.535030171131e-15       2.250671296228e-13       3.014716560782e-17       3.604038864111e-10       1.082352817820e-10      -3.255124656298e-15 
   26       1.656916847625e-10       1.759569532264e-15       2.330391696779e-13       3.259207379222e-17       3.324432267941e-10       1.003430757107e-10      -5.138115079076e-15 
   27       1.655821180112e-10       2.005396370582e-15       2.401518530780e-13       3.513421865301e-17       3.074250752392e-10       9.323273574509e-11      -4.984042807132e-15 
   28       1.657030036587e-10       2.274657939145e-15       2.462295108591e-13       3.777373333582e-17       2.848519059729e-10       8.679887315015e-11      -3.547020651741e-15 
   29       1.660482944561e-10       2.568537296673e-15       2.512398406661e-13       4.051076293921e-17       2.645689833940e-10       8.099719980066e-11      -1.569243537457e-15 
   30       1.665940427568e-10       2.887867262483e-15       2.552146763827e-13       4.334545269258e-17       2.463180107685e-10       7.574064992929e-11       3.616041121145e-17 
   31       1.672921576456e-10       3.233474357201e-15       2.582032906067e-13       4.627794744933e-17       2.296767777152e-10       7.089728731378e-11       3.756501979685e-16 
   32       1.681398120216e-10       3.606502487503e-15       2.602210936013e-13       4.930840671675e-17       2.145344884797e-10       6.644516578241e-11      -4.653501497051e-16 
   33       1.691306638355e-10       4.008208379477e-15       2.612836638550e-13       5.243699660705e-17       2.007623250005e-10       6.236665360604e-11      -2.013283403942e-15 
   34       1.702438505054e-10       4.439807437567e-15       2.613936721054e-13       5.566388663165e-17       1.881409306582e-10       5.861817205468e-11      -3.724573441666e-15 
   35       1.714773833377e-10       4.902225519516e-15       2.604467467580e-13       5.898924890819e-17       1.765895139419e-10       5.517840472657e-11      -5.271662194889e-15 
   36       1.728231518257e-10       5.396253010342e-15       2.582906005462e-13       6.241326015354e-17       1.659989737934e-10       5.201179123747e-11      -6.347201279692e-15 
   37       1.742641819072e-10       5.922619909206e-15       2.547733995478e-13       6.593609602096e-17       1.562122763136e-10       4.906911070052e-11      -6.682295455743e-15 
   38       1.758011847791e-10       6.482049934038e-15       2.498311663310e-13       6.955790800027e-17       1.471945508532e-10       4.634224335208e-11      -6.380423015699e-15 
   39       1.774326606585e-10       7.075215555082e-15       2.434284521283e-13       7.327883970625e-17       1.389088808712e-10       4.382447408039e-11      -5.696663644640e-15 
   40       1.791464878193e-10       7.702717527475e-15       2.355352937328e-13       7.709903342673e-17       1.312648727714e-10       4.149415425227e-11      -4.954094757771e-15 
   41       1.809259125124e-10       8.365106669843e-15       2.261323739992e-13       8.101861806019e-17       1.241482070268e-10       3.932221560941e-11      -4.469710897437e-15 
   42       1.827723123948e-10       9.062968976341e-15       2.152278412694e-13       8.503766753593e-17       1.175319271492e-10       3.730080440956e-11      -4.292334488227e-15 
   43       1.846881289847e-10       9.796860334851e-15       2.028464431026e-13       8.915622932714e-17       1.113936310657e-10       3.542176268298e-11      -4.386978600341e-15 
   44       1.866699718078e-10       1.056727965146e-14       1.890257301393e-13       9.337433506427e-17       1.056822294682e-10       3.366791710096e-11      -4.705198641475e-15 
   45       1.887114353274e-10       1.137469896973e-14       1.737957093895e-13       9.769198975674e-17       1.003350002159e-10       3.201879796893e-11      -5.188301336811e-15 
   46       1.908138198851e-10       1.221967130169e-14       1.571091029066e-13       1.021091369779e-16       9.534014428773e-11       3.047149352848e-11      -5.780244953972e-15 
   47       1.929777021120e-10       1.310275017199e-14       1.388912840582e-13       1.066256822883e-16       9.068909659380e-11       2.902483310679e-11      -6.417058730588e-15 
   48       1.951995239644e-10       1.402445850490e-14       1.190588508512e-13       1.112415013972e-16       8.635772784510e-11       2.767318038020e-11      -7.022415725652e-15 
   49       1.974712486977e-10       1.498528766521e-14       9.751903301223e-14       1.159564389970e-16       8.230520206907e-11       2.640609948530e-11      -7.506966096539e-15 
   50       1.997836934240e-10       1.598563070385e-14       7.418718013817e-14       1.207703108576e-16       7.848570141308e-11       2.521146585844e-11      -7.795091178179e-15 
   51       2.021383913405e-10       1.702556295855e-14       4.904619792889e-14       1.256829134834e-16       7.489000305548e-11       2.408656884518e-11      -7.915273823271e-15 
   52       2.045383546989e-10       1.810500024187e-14       2.210222035056e-14       1.306940150634e-16       7.151321302292e-11       2.302944562124e-11      -7.933105597814e-15 
   53       2.069845126874e-10       1.922375547238e-14      -6.631809537765e-15       1.358033514516e-16       6.834236104478e-11       2.203553215310e-11      -7.926618791289e-15 
   54       2.094755404212e-10       2.038153461932e-14      -3.713588162963e-14       1.410106251551e-16       6.535586358831e-11       2.109749141395e-11      -7.986910084358e-15 
   55       2.120091471869e-10       2.157804360871e-14      -6.939096027987e-14       1.463155304002e-16       6.252977578687e-11       2.020733718106e-11      -8.194412821375e-15 
   56       2.145867077107e-10       2.281334943200e-14      -1.034060391290e-13       1.517178379390e-16       5.985959610500e-11       1.936381680155e-11      -8.539382450279e-15 
   57       2.172094818588e-10       2.408760164134e-14      -1.391973554505e-13       1.572173295377e-16       5.734293788411e-11       1.856656157089e-11      -8.982750361908e-15 
   58       2.198771445108e-10       2.540092950978e-14      -1.767807435182e-13       1.628137737485e-16       5.497294849942e-11       1.781387128518e-11      -9.478426624465e-15 
   59       2.225876714029e-10       2.675344229908e-14      -2.161717000074e-13       1.685069259132e-16       5.273803689740e-11       1.710263189535e-11      -9.972974895563e-15 
   60       2.253372249722e-10       2.814522952757e-14      -2.573854493965e-13       1.742965281676e-16       5.062160113325e-11       1.642823316138e-11      -1.040528733427e-14 
   61       2.281217307411e-10       2.957623617977e-14      -3.004323860868e-13       1.801823451132e-16       4.860646399326e-11       1.578584717246e-11      -1.072025318524e-14 
   62       2.309422782035e-10       3.104585499731e-14      -3.453030572981e-13       1.861642801813e-16       4.668995969459e-11       1.517478554751e-11      -1.091408517833e-14 
   63       2.338007351704e-10       3.255324273212e-14      -3.919799101382e-13       1.922422855138e-16       4.487176547887e-11       1.459497858202e-11      -1.099863655318e-14 
   64       2.366981048853e-10       3.409743350243e-14      -4.404415377606e-13       1.984163297135e-16       4.314937170642e-11       1.404566229361e-11      -1.098842172529e-14 
   65       2.396344655081e-10       3.567733509256e-14      -4.906625980725e-13       2.046863989789e-16       4.151795877766e-11       1.352533925549e-11      -1.090073520662e-14 
   66       2.426089095984e-10       3.729172525278e-14      -5.426137324426e-13       2.110524982406e-16       3.997027405459e-11       1.303173942998e-11      -1.075577052634e-14 
   67       2.456194835983e-10       3.893924799919e-14      -5.962614844093e-13       2.175146522965e-16       3.849650878216e-11       1.256178100187e-11      -1.057673915146e-14 
   68       2.486641608870e-10       4.061856476217e-14      -6.515726350049e-13       2.240729066424e-16       3.708682953341e-11       1.211236628392e-11      -1.038553088675e-14 
   69       2.517441251692e-10       4.232885166731e-14      -7.085284105167e-13       2.307273276208e-16       3.573984329564e-11       1.168304425382e-11      -1.018840816936e-14 
   70       2.548610467294e-10       4.406939683251e-14      -7.671130207829e-13       2.374780043421e-16       3.445563441086e-11       1.127381963562e-11      -9.987613377446e-15 
   71       2.580160742556e-10       4.583945469029e-14      -8.273095283949e-13       2.443250501006e-16       3.323320761807e-11       1.088434807256e-11      -9.785575678450e-15 
   72       2.612098007564e-10       4.763824624788e-14      -8.890998803615e-13       2.512686035021e-16       3.207043286531e-11       1.051391831784e-11      -9.584915921152e-15 
   73       2.644422294783e-10       4.946495934744e-14      -9.524649397745e-13       2.583088295915e-16       3.096399012180e-11       1.016143442545e-11      -9.388451527663e-15 
   74       2.677127398234e-10       5.131874892618e-14      -1.017384517473e-12       2.654459209809e-16       2.990931418990e-11       9.825397940940e-12      -9.199201385442e-15 
   75       2.710200532666e-10       5.319873727660e-14      -1.083837403709e-12       2.726800989774e-16       2.890053951728e-11       9.503890092205e-12      -9.020390739317e-15 
   76       2.743628224720e-10       5.510394311302e-14      -1.151798611632e-12       2.800115794670e-16       2.793191409618e-11       9.195029352286e-12      -8.854896739876e-15 
   77       2.777415980077e-10       5.703305326301e-14      -1.221230457432e-12       2.874404608907e-16       2.700246081902e-11       8.898479824423e-12      -8.703457548081e-15 
   78       2.811571600156e-10       5.898460962208e-14      -1.292089903588e-12       2.949668177946e-16       2.611206982735e-11       8.614186840489e-12      -8.566144022764e-15 
   79       2.846099058706e-10       6.095707547344e-14      -1.364331177655e-12       3.025907346600e-16       2.526008017560e-11       8.341918059867e-12      -8.442883620815e-15 
   80       2.880998288766e-10       6.294883428835e-14      -1.437905746750e-12       3.103123063084e-16       2.444525476799e-11       8.081255408128e-12      -8.333453819408e-15 
   81       2.916264969637e-10       6.495818852636e-14      -1.512762292046e-12       3.181316383067e-16       2.366575529536e-11       7.831587015715e-12      -8.237475538218e-15 
   82       2.951890313843e-10       6.698335843560e-14      -1.588846683264e-12       3.260488473723e-16       2.291911717214e-11       7.592099156621e-12      -8.154406561643e-15 
   83       2.987860854099e-10       6.902248085309e-14      -1.666101953160e-12       3.340640617783e-16       2.220222447316e-11       7.361768187070e-12      -8.083534961027e-15 
   84       3.024163338464e-10       7.107368446285e-14      -1.744470848738e-12       3.421774294725e-16       2.151204532967e-11       7.139609204862e-12      -8.023883529456e-15 
   85       3.060800814854e-10       7.313533253302e-14      -1.823904026683e-12       3.503891430932e-16       2.084803309276e-11       6.925487049208e-12      -7.973919291744e-15 
   86       3.097778834813e-10       7.520581840691e-14      -1.904353176105e-12       3.586994198629e-16       2.021007913081e-11       6.719425592571e-12      -7.931783553417e-15 
   87       3.135100457094e-10       7.728349270707e-14      -1.985768580151e-12       3.671084947693e-16       1.959777566134e-11       6.521359282372e-12      -7.895368652055e-15 
   88       3.172766120480e-10       7.936666342051e-14      -2.068099133808e-12       3.756166211008e-16       1.901040346882e-11       6.331129394306e-12      -7.862309883925e-15 
   89       3.210773516600e-10       8.145359598407e-14      -2.151292361694e-12       3.842240709806e-16       1.844691962229e-11       6.148480285658e-12      -7.829977430613e-15 
   90       3.249117462747e-10       8.354251336968e-14      -2.235294435857e-12       3.929311359020e-16       1.790594519317e-11       5.973055648612e-12      -7.795468285663e-15 
   91       3.287789774699e-10       8.563159616964e-14      -2.320050193577e-12       4.017381272627e-16       1.738575297286e-11       5.804394763568e-12      -7.755598181205e-15 
   92       3.326779139532e-10       8.771898268193e-14      -2.405503155155e-12       4.106453769000e-16       1.688425519058e-11       5.641928752453e-12      -7.706893514593e-15 
   93       3.366074676826e-10       8.980279277118e-14      -2.491595255256e-12       4.196532783403e-16       1.639948716798e-11       5.485113199078e-12      -7.646467422768e-15 
   94       3.405677511204e-10       9.188120337142e-14      -2.578265952038e-12       4.287624164838e-16       1.593116817041e-11       5.333856964567e-12      -7.574816263509e-15 
   95       3.445590713254e-10       9.395238454946e-14      -2.665453016315e-12       4.379734585042e-16       1.547935369141e-11       5.188151238648e-12      -7.493430755347e-15 
   96       3.485815690701e-10       9.601447714721e-14      -2.753092819760e-12       4.472871159500e-16       1.504395503132e-11       5.047937069457e-12      -7.403953314056e-15 
   97       3.526352111854e-10       9.806559319327e-14      -2.841120348767e-12       4.567041458386e-16       1.462473382265e-11       4.913103488750e-12      -7.308182115839e-15 
   98       3.567197829055e-10       1.001038163147e-13      -2.929469218322e-12       4.662253517500e-16       1.422129655542e-11       4.783485637098e-12      -7.208075160506e-15 
   99       3.608348802122e-10       1.021272021484e-13      -3.018071685860e-12       4.758515849201e-16       1.383308910254e-11       4.658862889093e-12      -7.105754334668e-15 
  100       3.649799021805e-10       1.041337787533e-13      -3.106858665137e-12       4.855837453346e-16       1.345939124513e-11       4.538956978544e-12      -7.003509474917e-15 
  101       3.691540433226e-10       1.061215470213e-13      -3.195759740093e-12       4.954227828225e-16       1.309931119793e-11       4.423430123684e-12      -6.903802431008e-15 
  102       3.733562859330e-10       1.080884810896e-13      -3.284703178713e-12       5.053696981501e-16       1.275178013464e-11       4.311883152368e-12      -6.809271129052e-15 
  103       3.775853924333e-10       1.100325287520e-13      -3.373615946898e-12       5.154255441143e-16       1.241554671326e-11       4.203853627277e-12      -6.722733634695e-15 
  104       3.818401651984e-10       1.119516647213e-13      -3.462424756698e-12       5.255913614015e-16       1.208945533656e-11       4.098918855905e-12      -6.646539709971e-15 
  105       3.861202824973e-10       1.138440577246e-13      -3.551059342437e-12       5.358679739408e-16       1.177333553418e-11       3.997024806258e-12      -6.580516971898e-15 
  106       3.904255617299e-10       1.157079268529e-13      -3.639449655050e-12       5.462561678163e-16       1.146722307612e-11       3.898198334557e-12      -6.523753573205e-15 
  107       3.947556973704e-10       1.175414917062e-13      -3.727524892164e-12       5.567567544056e-16       1.117108463792e-11       3.802445554626e-12      -6.475222863564e-15 
