# Matter power spectrum P(k) at redshift z=0
# for k=1.12028e-05 to 1.00401 h/Mpc,
# number of wavenumbers equal to 604
#    1:k (h/Mpc)              2:P (Mpc/h)^3        
       1.120279606401e-05       6.113460483409e+01 
       2.475783134993e-05       1.315398719181e+02 
       3.836625245190e-05       2.008604043822e+02 
       5.206861857527e-05       2.698208397228e+02 
       6.590623707093e-05       3.388465602322e+02 
       7.992157115066e-05       4.082723732317e+02 
       9.415866205766e-05       4.783844763556e+02 
       1.086635718533e-04       5.494629397393e+02 
       1.234848530239e-04       6.217728194825e+02 
       1.386740511430e-04       6.955986704805e+02 
       1.542862467992e-04       7.712004394004e+02 
       1.703806428380e-04       8.488923213263e+02 
       1.870212025767e-04       9.289766595396e+02 
       2.042773438958e-04       1.011804771234e+03 
       2.222246927973e-04       1.097699635300e+03 
       2.409458979141e-04       1.187072533569e+03 
       2.605315042159e-04       1.280330616694e+03 
       2.810808793830e-04       1.377923276858e+03 
       3.027031794954e-04       1.480361440968e+03 
       3.255183312059e-04       1.588168769082e+03 
       3.496579947903e-04       1.701896602444e+03 
       3.752664557651e-04       1.822202627700e+03 
       4.025013717034e-04       1.949743543596e+03 
       4.315342755009e-04       2.085177075901e+03 
       4.625507075289e-04       2.229257640377e+03 
       4.957498192166e-04       2.382784373002e+03 
       5.313432640494e-04       2.546467260483e+03 
       5.695531759289e-04       2.721084606238e+03 
       6.106090394245e-04       2.907341645954e+03 
       6.547432940899e-04       3.105903174881e+03 
       7.021855981933e-04       3.317288465043e+03 
       7.531558141465e-04       3.541975665710e+03 
       8.078559663958e-04       3.780275239525e+03 
       8.664616433806e-04       4.032370161550e+03 
       9.291135288031e-04       4.298307747603e+03 
       9.959098978066e-04       4.578153487779e+03 
       1.066900942128e-03       4.871779821437e+03 
       1.142085655943e-03       5.178860250572e+03 
       1.221411723283e-03       5.499514333076e+03 
       1.304778451118e-03       5.833232146363e+03 
       1.392042379789e-03       6.179254739793e+03 
       1.483024872000e-03       6.536676570500e+03 
       1.577520802601e-03       6.904602959952e+03 
       1.675307464058e-03       7.281768404780e+03 
       1.776152937978e-03       7.666841790908e+03 
       1.879823402535e-03       8.058856766419e+03 
       1.986089085662e-03       8.456492989255e+03 
       2.094728785411e-03       8.858819560286e+03 
       2.205533035494e-03       9.264917890492e+03 
       2.318306089980e-03       9.673769271525e+03 
       2.432866944355e-03       1.008446784424e+04 
       2.549049614872e-03       1.049616698628e+04 
       2.666702878829e-03       1.090820101066e+04 
       2.785689647304e-03       1.131994069226e+04 
       2.905886107337e-03       1.173081715674e+04 
       3.027180737759e-03       1.214031585036e+04 
       3.149473274518e-03       1.254799371726e+04 
       3.272673678209e-03       1.295343939979e+04 
       3.396701138557e-03       1.335631345978e+04 
       3.521483137195e-03       1.375629326769e+04 
       3.646954580351e-03       1.415313726068e+04 
       3.773057006331e-03       1.454660651728e+04 
       3.899737868130e-03       1.493648664825e+04 
       4.026949888585e-03       1.532259976394e+04 
       4.154650483758e-03       1.570479792494e+04 
       4.282801249309e-03       1.608295467246e+04 
       4.411367504236e-03       1.645695590046e+04 
       4.540317886342e-03       1.682670272728e+04 
       4.669623994018e-03       1.719211124558e+04 
       4.799260069254e-03       1.755311559995e+04 
       4.929202717196e-03       1.790966676226e+04 
       5.059430658031e-03       1.826194680212e+04 
       5.189924507378e-03       1.861008567767e+04 
       5.320666581792e-03       1.895320472981e+04 
       5.451640726388e-03       1.929191330092e+04 
       5.582832161912e-03       1.962607740008e+04 
       5.714227348927e-03       1.995538313806e+04 
       5.845813867072e-03       2.028101890930e+04 
       5.977580307575e-03       2.060093512604e+04 
       6.109516177451e-03       2.091668064726e+04 
       6.241611814009e-03       2.122707244629e+04 
       6.373858308449e-03       2.153396321251e+04 
       6.506247437490e-03       2.183559793460e+04 
       6.638771602108e-03       2.213264777561e+04 
       6.771423772559e-03       2.242507577039e+04 
       6.904197438991e-03       2.271334475004e+04 
       7.037086566993e-03       2.299653442790e+04 
       7.170085557560e-03       2.327376126166e+04 
       7.303189210962e-03       2.355001302343e+04 
       7.436392694115e-03       2.382000499022e+04 
       7.569691511056e-03       2.408582383798e+04 
       7.703081476210e-03       2.434635121596e+04 
       7.836558690143e-03       2.460486173893e+04 
       7.970119517548e-03       2.485756318130e+04 
       8.103760567230e-03       2.510572348829e+04 
       8.237478673891e-03       2.535012771578e+04 
       8.371270881533e-03       2.558963420829e+04 
       8.505134428312e-03       2.582673525849e+04 
       8.639066732714e-03       2.605825925122e+04 
       8.773065380907e-03       2.628612669556e+04 
       8.907128115172e-03       2.651010318023e+04 
       9.041252823299e-03       2.672922102424e+04 
       9.175437528869e-03       2.694642313786e+04 
       9.309680382324e-03       2.715643492710e+04 
       9.443979652770e-03       2.736626900592e+04 
       9.578333720431e-03       2.756965705818e+04 
       9.712741069715e-03       2.776885734691e+04 
       9.847200282809e-03       2.796557729282e+04 
       9.981710033790e-03       2.815847545608e+04 
       1.011626908318e-02       2.834672453866e+04 
       1.025087627293e-02       2.853342227760e+04 
       1.038553052175e-02       2.871368874947e+04 
       1.052023082088e-02       2.889167282545e+04 
       1.065497623003e-02       2.906662470214e+04 
       1.078976587377e-02       2.923676232475e+04 
       1.092459893811e-02       2.940458498111e+04 
       1.105947466730e-02       2.956764254233e+04 
       1.119439236099e-02       2.972908940333e+04 
       1.132935137140e-02       2.988431324941e+04 
       1.146435110090e-02       3.003801357784e+04 
       1.159939099962e-02       3.018836112970e+04 
       1.173447056328e-02       3.033575785788e+04 
       1.186958933118e-02       3.047784496039e+04 
       1.200474688432e-02       3.061778637481e+04 
       1.213994284365e-02       3.075683337153e+04 
       1.227517686848e-02       3.088816000875e+04 
       1.241044865494e-02       3.101878167136e+04 
       1.254575793460e-02       3.114672676369e+04 
       1.268110447318e-02       3.127021042860e+04 
       1.281648806931e-02       3.139110372466e+04 
       1.295190855346e-02       3.150966978005e+04 
       1.308736578687e-02       3.162435957070e+04 
       1.322285966058e-02       3.173722258063e+04 
       1.335839009457e-02       3.184602944088e+04 
       1.349395703690e-02       3.195199169492e+04 
       1.362956046297e-02       3.205466916754e+04 
       1.376520037481e-02       3.215494516028e+04 
       1.390087680043e-02       3.225319256692e+04 
       1.403658979321e-02       3.234793866566e+04 
       1.417233943136e-02       3.243906653167e+04 
       1.430812581743e-02       3.252828252842e+04 
       1.444394907783e-02       3.261493879658e+04 
       1.457980936241e-02       3.269871521383e+04 
       1.471570684410e-02       3.277931576226e+04 
       1.485164171855e-02       3.285869962786e+04 
       1.498761420384e-02       3.293312246261e+04 
       1.512362454017e-02       3.300734299911e+04 
       1.525967298967e-02       3.308033127229e+04 
       1.539575983616e-02       3.314553293717e+04 
       1.553188538496e-02       3.321097185208e+04 
       1.566804996273e-02       3.327409247579e+04 
       1.580425391740e-02       3.333457409283e+04 
       1.594049761799e-02       3.339298756471e+04 
       1.607678145457e-02       3.344943466291e+04 
       1.621310583824e-02       3.350237334561e+04 
       1.634947120102e-02       3.355420564062e+04 
       1.648587799592e-02       3.360216170281e+04 
       1.662232669691e-02       3.364869570922e+04 
       1.675881779896e-02       3.369341853247e+04 
       1.689535181810e-02       3.373561804388e+04 
       1.703192929151e-02       3.377546852818e+04 
       1.716855077757e-02       3.381214732023e+04 
       1.730521685605e-02       3.384757506370e+04 
       1.744192812814e-02       3.388069419040e+04 
       1.757868521669e-02       3.391175403522e+04 
       1.771548876632e-02       3.394096399425e+04 
       1.785233944366e-02       3.396852012811e+04 
       1.798923793749e-02       3.399285374745e+04 
       1.812618495900e-02       3.401577667885e+04 
       1.826318124204e-02       3.403722313631e+04 
       1.840022754332e-02       3.405546727908e+04 
       1.853732464274e-02       3.407312182812e+04 
       1.867447334366e-02       3.408769165441e+04 
       1.881167447320e-02       3.410088392404e+04 
       1.894892888254e-02       3.411258567589e+04 
       1.908623744732e-02       3.412132610609e+04 
       1.922360106793e-02       3.412854015480e+04 
       1.936102066994e-02       3.413475940287e+04 
       1.949849720444e-02       3.413904768552e+04 
       1.963603164850e-02       3.414076987863e+04 
       1.977362500554e-02       3.414164592486e+04 
       1.991127830583e-02       3.414025561379e+04 
       2.004899260691e-02       3.413796669935e+04 
       2.018676899408e-02       3.413279149713e+04 
       2.032460858090e-02       3.412661396074e+04 
       2.046251250971e-02       3.411917124579e+04 
       2.060048195216e-02       3.410904197865e+04 
       2.073851810975e-02       3.409813305490e+04 
       2.087662221445e-02       3.408539578513e+04 
       2.101479552923e-02       3.407105455104e+04 
       2.115303934871e-02       3.405553257089e+04 
       2.129135499981e-02       3.403778587978e+04 
       2.142974384236e-02       3.401884099505e+04 
       2.156820726983e-02       3.399928796326e+04 
       2.170674670997e-02       3.397718129208e+04 
       2.184536362559e-02       3.395450533963e+04 
       2.198405951528e-02       3.392981147392e+04 
       2.212283591416e-02       3.390402683432e+04 
       2.226169439471e-02       3.387677670416e+04 
       2.240063656757e-02       3.384833980922e+04 
       2.253966408239e-02       3.381820090787e+04 
       2.267877862867e-02       3.378694872161e+04 
       2.281798193673e-02       3.375482339997e+04 
       2.295727577857e-02       3.372098935212e+04 
       2.309666196884e-02       3.368635008809e+04 
       2.323614236586e-02       3.365011857999e+04 
       2.337571887257e-02       3.361253239472e+04 
       2.351539343766e-02       3.357440962011e+04 
       2.365516805657e-02       3.353428880572e+04 
       2.379504477265e-02       3.349338889578e+04 
       2.393502567831e-02       3.345149162623e+04 
       2.407511291617e-02       3.340843078289e+04 
       2.421530868031e-02       3.336432990560e+04 
       2.435561521751e-02       3.331911654480e+04 
       2.449603482855e-02       3.327260420297e+04 
       2.463656986958e-02       3.322494681405e+04 
       2.477722275345e-02       3.317673408750e+04 
       2.491799595116e-02       3.312716563211e+04 
       2.505889199333e-02       3.307706767920e+04 
       2.519991347172e-02       3.302556466968e+04 
       2.534106304078e-02       3.297305431477e+04 
       2.548234341926e-02       3.291942900212e+04 
       2.562375739188e-02       3.286536710075e+04 
       2.576530781109e-02       3.281046198288e+04 
       2.590699759876e-02       3.275436923584e+04 
       2.604882974809e-02       3.269806450935e+04 
       2.619080732548e-02       3.263976892898e+04 
       2.633293347244e-02       3.258139360273e+04 
       2.647521140768e-02       3.252266339977e+04 
       2.661764442915e-02       3.246164338056e+04 
       2.676023591620e-02       3.240069966138e+04 
       2.690298933183e-02       3.233892821762e+04 
       2.704590822496e-02       3.227597159835e+04 
       2.718899623283e-02       3.221352390758e+04 
       2.733225708347e-02       3.214859001472e+04 
       2.747569459822e-02       3.208398824184e+04 
       2.761931269439e-02       3.201814042725e+04 
       2.776311538797e-02       3.195206912545e+04 
       2.790710679645e-02       3.188576303887e+04 
       2.805129114177e-02       3.181780123273e+04 
       2.819567275328e-02       3.174947700641e+04 
       2.834025607093e-02       3.168072394878e+04 
       2.848504564850e-02       3.161105996169e+04 
       2.863004615693e-02       3.154106107049e+04 
       2.877526238785e-02       3.147078921208e+04 
       2.892069925714e-02       3.139899849416e+04 
       2.906636180871e-02       3.132740141915e+04 
       2.921225521838e-02       3.125509704702e+04 
       2.935838479787e-02       3.118194662094e+04 
       2.950475599902e-02       3.110838345239e+04 
       2.965137441811e-02       3.103459449170e+04 
       2.979824580038e-02       3.095997025659e+04 
       2.994537604466e-02       3.088499711123e+04 
       3.009277120828e-02       3.080930454096e+04 
       3.024043751208e-02       3.073349378261e+04 
       3.038838134571e-02       3.065679276268e+04 
       3.053660927300e-02       3.057986848103e+04 
       3.068512803771e-02       3.050292357568e+04 
       3.083394456941e-02       3.042467219543e+04 
       3.098306598959e-02       3.034683064673e+04 
       3.113249961811e-02       3.026772824580e+04 
       3.128225297981e-02       3.018859920529e+04 
       3.143233381147e-02       3.010933567324e+04 
       3.158275006904e-02       3.002932151544e+04 
       3.173350993517e-02       2.994906432840e+04 
       3.188462182706e-02       2.986831110195e+04 
       3.203609440467e-02       2.978770103741e+04 
       3.218793657924e-02       2.970637407601e+04 
       3.234015752228e-02       2.962438459998e+04 
       3.249276667481e-02       2.954254033984e+04 
       3.264577375718e-02       2.946052833760e+04 
       3.279918877919e-02       2.937758230167e+04 
       3.295302205076e-02       2.929552320639e+04 
       3.310728419304e-02       2.921137537812e+04 
       3.326198615009e-02       2.912797997111e+04 
       3.341713920103e-02       2.904417300548e+04 
       3.357275497282e-02       2.896020101877e+04 
       3.372884545364e-02       2.887575843702e+04 
       3.388542300691e-02       2.879128247464e+04 
       3.404250038595e-02       2.870617920536e+04 
       3.420009074946e-02       2.862125983121e+04 
       3.435820767764e-02       2.853562269710e+04 
       3.451686518923e-02       2.844997742760e+04 
       3.467607775932e-02       2.836420678491e+04 
       3.483586033815e-02       2.827816890316e+04 
       3.499622837080e-02       2.819210088808e+04 
       3.515719781796e-02       2.810543352226e+04 
       3.531878517778e-02       2.801866404378e+04 
       3.548100750888e-02       2.793178284995e+04 
       3.564388245458e-02       2.784484760749e+04 
       3.580742826849e-02       2.775743819933e+04 
       3.597166384145e-02       2.766990978829e+04 
       3.613660873000e-02       2.758211212929e+04 
       3.630228318645e-02       2.749428765813e+04 
       3.646870819064e-02       2.740614471593e+04 
       3.663590548352e-02       2.731790139632e+04 
       3.680389760270e-02       2.722974774848e+04 
       3.697270792006e-02       2.714090822740e+04 
       3.714236068163e-02       2.705220748436e+04 
       3.731288104983e-02       2.696318575281e+04 
       3.748429514828e-02       2.687426489559e+04 
       3.765663010940e-02       2.678510712033e+04 
       3.782991412495e-02       2.669658212794e+04 
       3.800417649976e-02       2.660583984588e+04 
       3.817944770886e-02       2.651616561163e+04 
       3.835575945837e-02       2.642627495566e+04 
       3.853314475030e-02       2.633637187009e+04 
       3.871163795170e-02       2.624585674476e+04 
       3.889127486842e-02       2.615548635293e+04 
       3.907209282391e-02       2.606475694772e+04 
       3.925413074340e-02       2.597421792166e+04 
       3.943742924404e-02       2.588323484012e+04 
       3.962203073138e-02       2.579215288332e+04 
       3.980797950273e-02       2.570096171232e+04 
       3.999532185815e-02       2.561026685661e+04 
       4.018410621950e-02       2.551790395185e+04 
       4.037438325856e-02       2.542614340705e+04 
       4.056620603469e-02       2.533422083296e+04 
       4.075963014332e-02       2.524244083916e+04 
       4.095471387584e-02       2.514959024886e+04 
       4.115151839235e-02       2.505715550372e+04 
       4.135010790825e-02       2.496450670585e+04 
       4.155054989617e-02       2.487162713958e+04 
       4.175291530460e-02       2.477830957678e+04 
       4.195727879512e-02       2.468500068363e+04 
       4.216371899992e-02       2.459116944482e+04 
       4.237231880179e-02       2.449731940428e+04 
       4.258316563906e-02       2.440319684638e+04 
       4.279635183793e-02       2.430955536983e+04 
       4.301197497545e-02       2.421401706127e+04 
       4.323013827631e-02       2.411937685239e+04 
       4.345095104741e-02       2.402405644039e+04 
       4.367452915455e-02       2.392819329567e+04 
       4.390099554603e-02       2.383292764569e+04 
       4.413048082890e-02       2.373622781828e+04 
       4.436312390420e-02       2.363945788580e+04 
       4.459907266846e-02       2.354245046180e+04 
       4.483848478983e-02       2.344510011548e+04 
       4.508152856847e-02       2.334715744391e+04 
       4.532838389212e-02       2.324887574208e+04 
       4.557924329981e-02       2.315007102397e+04 
       4.583431316817e-02       2.305175458108e+04 
       4.609381503777e-02       2.295145619480e+04 
       4.635798709906e-02       2.285071983021e+04 
       4.662708586141e-02       2.274978975380e+04 
       4.690138803236e-02       2.264837970497e+04 
       4.718119263897e-02       2.254611380136e+04 
       4.746682342895e-02       2.244311948433e+04 
       4.775863159616e-02       2.233946629928e+04 
       4.805699888309e-02       2.223500423338e+04 
       4.836234112334e-02       2.212962747593e+04 
       4.867511229913e-02       2.202415591366e+04 
       4.899580920399e-02       2.191621488866e+04 
       4.932497681926e-02       2.180810842003e+04 
       4.966321453542e-02       2.169867780816e+04 
       5.001118337803e-02       2.158813507547e+04 
       5.036961443227e-02       2.147633876047e+04 
       5.073931870443e-02       2.136313596306e+04 
       5.112119871308e-02       2.124848230853e+04 
       5.151626217174e-02       2.113212030019e+04 
       5.192563821186e-02       2.101407996134e+04 
       5.235059670554e-02       2.089408683641e+04 
       5.279257138763e-02       2.077202321311e+04 
       5.325318765573e-02       2.064761397398e+04 
       5.373429615464e-02       2.052077133900e+04 
       5.423801354196e-02       2.039117862436e+04 
       5.476677220053e-02       2.025836796633e+04 
       5.532338112689e-02       2.012223160492e+04 
       5.591110080176e-02       1.998216294139e+04 
       5.653373554612e-02       1.983774031224e+04 
       5.719574767401e-02       1.968837681561e+04 
       5.790239860679e-02       1.953338013826e+04 
       5.865992284047e-02       1.937184815857e+04 
       5.947574085585e-02       1.920272707409e+04 
       6.035871588134e-02       1.902455068674e+04 
       6.131945515931e-02       1.883583457760e+04 
       6.237064580276e-02       1.863406309481e+04 
       6.352739271710e-02       1.841667776209e+04 
       6.480748218386e-02       1.817992716690e+04 
       6.623141753637e-02       1.791913583790e+04 
       6.782195531565e-02       1.762820324263e+04 
